This file was gnenerated on 2021-02-06 15:15:57.047342 by Grant Finneman. This contains the extracted data from the Gate simulations
The edep for each bar was summed up and printed to this file. The only math operation done has been addition.

  id        edep
   0     35.9188
   1     67.2333
   2     60.9263
   3    118.508
   4    127.981
   5    121.855
   6    250.815
   7    255.271
   8    112.816
   9    170.472
  10    258.473
  11    277.865
  12    401.074
  13    507.939
  14    610.997
  15    618.954
  16    432.981
  17   1106.46
  18   2315.94
  19   3707.62
  20   5547.4
  21   7320.38
  22   8321.55
  23   7516.04
  24   5325.29
  25  13687.1
  26  22329.9
  27  30356.3
  28  38421.7
  29  42112
  30  43742
  31  39720.3
  32   5079.66
  33  13629.4
  34  22774.8
  35  29987.7
  36  38497.3
  37  41789.4
  38  42939.4
  39  40838.2
  40    370.805
  41    959.864
  42   2011.89
  43   3347.8
  44   4992.46
  45   6442.86
  46   7899.61
  47   7454.89
  48     98.648
  49    162.445
  50    162.434
  51    277.279
  52    353.267
  53    600.544
  54    609.337
  55    640.966
  56     49.1621
  57     61.4233
  58     74.3491
  59    108.798
  60    133.359
  61    143.728
  62    154.781
  63    190.24
