This file was gnenerated on 2021-02-06 15:02:16.747324 by Grant Finneman. This contains the extracted data from the Gate simulations
The edep for each bar was summed up and printed to this file. The only math operation done has been addition.

  id        edep
   0     38.8769
   1     66.4721
   2     76.1613
   3    105.744
   4    108.893
   5    217.784
   6    200.654
   7    199.91
   8     85.8305
   9    130.799
  10    184.681
  11    301.825
  12    332.484
  13    485.171
  14    641.547
  15    699.659
  16    411.494
  17    949.311
  18   1988.57
  19   3543.33
  20   5406.08
  21   7433.76
  22   8233.85
  23   7958.87
  24   5210.64
  25  13863.6
  26  23164.7
  27  30484.3
  28  37618.6
  29  42703.6
  30  44184.4
  31  39416.9
  32   5728.23
  33  15011.2
  34  23050.8
  35  33084.3
  36  38475
  37  43090.6
  38  45099
  39  40902.3
  40    272.786
  41   1255.62
  42   2497.54
  43   3853.26
  44   5124.76
  45   7240.42
  46   8521.55
  47   8107.67
  48    117.668
  49    172.622
  50    251.347
  51    343.604
  52    445.669
  53    595.93
  54    748.636
  55    858.66
  56     32.3714
  57     57.7817
  58     92.9689
  59     80.5734
  60    133.446
  61    161.317
  62    197.681
  63    245.764
